#F twoslitsLeitenberger.spec 

#S  1 2h=??
#N 4 
#L Z[um]  intensityCoh  phaseCoh  intensityEnsemble
  -1.00000000000e+02    1.73241677167e+10    1.73499857299e+00    4.18731685783e+10 
  -9.99341888779e+01    1.80693406436e+10    2.05181282589e+00    4.21435592683e+10 
  -9.98683777558e+01    1.87666596278e+10    2.36929931612e+00    4.23813846322e+10 
  -9.98025666338e+01    1.94100166313e+10    2.68733934894e+00    4.25821616006e+10 
  -9.97367555117e+01    1.99943651034e+10    3.00581615893e+00    4.27432725235e+10 
  -9.96709443896e+01    2.05148920369e+10   -2.95855576666e+00    4.28614873605e+10 
  -9.96051332675e+01    2.09675388598e+10   -2.63949554369e+00    4.29344105762e+10 
  -9.95393221454e+01    2.13485302797e+10   -2.32027178248e+00    4.29593321653e+10 
  -9.94735110234e+01    2.16554750057e+10   -2.00096599333e+00    4.29353197652e+10 
  -9.94076999013e+01    2.18860823294e+10   -1.68163839100e+00    4.28607020375e+10 
  -9.93418887792e+01    2.20386809109e+10   -1.36236678200e+00    4.27343776897e+10 
  -9.92760776571e+01    2.21123724233e+10   -1.04321943241e+00    4.25555759555e+10 
  -9.92102665350e+01    2.21074084107e+10   -7.24253919763e-01    4.23249004285e+10 
  -9.91444554130e+01    2.20243384963e+10   -4.05526502089e-01    4.20426049840e+10 
  -9.90786442909e+01    2.18641568164e+10   -8.71097488108e-02    4.17090837890e+10 
  -9.90128331688e+01    2.16288738675e+10    2.30944432795e-01    4.13257905448e+10 
  -9.89470220467e+01    2.13210296956e+10    5.48569925182e-01    4.08941980263e+10 
  -9.88812109246e+01    2.09434763087e+10    8.65706171957e-01    4.04158984219e+10 
  -9.88153998026e+01    2.05003576985e+10    1.18228575632e+00    3.98939554700e+10 
  -9.87495886805e+01    1.99954705367e+10    1.49824058420e+00    3.93303567157e+10 
  -9.86837775584e+01    1.94335627002e+10    1.81349875699e+00    3.87281144597e+10 
  -9.86179664363e+01    1.88196384787e+10    2.12797552804e+00    3.80903406823e+10 
  -9.85521553142e+01    1.81591483499e+10    2.44159376573e+00    3.74204402053e+10 
  -9.84863441922e+01    1.74576208914e+10    2.75426180994e+00    3.67215999467e+10 
  -9.84205330701e+01    1.67214748750e+10    3.06587164213e+00    3.59981632841e+10 
  -9.83547219480e+01    1.59567225910e+10   -2.90686169551e+00    3.52538419462e+10 
  -9.82889108259e+01    1.51693477639e+10   -2.59769700049e+00    3.44918315323e+10 
  -9.82230997038e+01    1.43661468381e+10   -2.28994632123e+00    3.37169199971e+10 
  -9.81572885818e+01    1.35532851692e+10   -1.98376315701e+00    3.29323970178e+10 
  -9.80914774597e+01    1.27372271841e+10   -1.67931831830e+00    3.21426553707e+10 
  -9.80256663376e+01    1.19241533829e+10   -1.37679388490e+00    3.13512869162e+10 
  -9.79598552155e+01    1.11202558761e+10   -1.07640387751e+00    3.05621624185e+10 
  -9.78940440935e+01    1.03314106950e+10   -7.78385112332e-01    2.97790769517e+10 
  -9.78282329714e+01    9.56308239066e+09   -4.82990250351e-01    2.90051990861e+10 
  -9.77624218493e+01    8.82070202656e+09   -1.90521703851e-01    2.82440755352e+10 
  -9.76966107272e+01    8.10914991816e+09    9.86999759632e-02    2.74985021515e+10 
  -9.76307996051e+01    7.43307712487e+09    3.84323902098e-01    2.67718580284e+10 
  -9.75649884831e+01    6.79643787375e+09    6.65971954183e-01    2.60661923717e+10 
  -9.74991773610e+01    6.20278351558e+09    9.43252427358e-01    2.53835811821e+10 
  -9.74333662389e+01    5.65548643284e+09    1.21575097112e+00    2.47267326637e+10 
  -9.73675551168e+01    5.15696042012e+09    1.48310457957e+00    2.40968666971e+10 
  -9.73017439947e+01    4.70939433144e+09    1.74496535915e+00    2.34953846944e+10 
  -9.72359328727e+01    4.31426027179e+09    2.00111377017e+00    2.29234672118e+10 
  -9.71701217506e+01    3.97264738334e+09    2.25148783990e+00    2.23819077088e+10 
  -9.71043106285e+01    3.68497945348e+09    2.49622962600e+00    2.18710737392e+10 
  -9.70384995064e+01    3.45113412329e+09    2.73579307720e+00    2.13911171369e+10 
  -9.69726883843e+01    3.27054532531e+09    2.97094701787e+00    2.09418072386e+10 
  -9.69068772623e+01    3.14194158666e+09   -3.08037547061e+00    2.05226683575e+10 
  -9.68410661402e+01    3.06384364344e+09   -2.85047114793e+00    2.01327612218e+10 
  -9.67752550181e+01    3.03422363068e+09   -2.62093947267e+00    1.97714869391e+10 
  -9.67094438960e+01    3.05031320608e+09   -2.39024644093e+00    1.94371798359e+10 
  -9.66436327739e+01    3.10926021655e+09   -2.15698259808e+00    1.91283557091e+10 
  -9.65778216519e+01    3.20793076319e+09   -1.91998222698e+00    1.88436403334e+10 
  -9.65120105298e+01    3.34251294345e+09   -1.67842890925e+00    1.85806987358e+10 
  -9.64461994077e+01    3.50923737522e+09   -1.43180914765e+00    1.83379448299e+10 
  -9.63803882856e+01    3.70389582494e+09   -1.17995849842e+00    1.81129670341e+10 
  -9.63145771635e+01    3.92222556862e+09   -9.22880403116e-01    1.79035881046e+10 
  -9.62487660415e+01    4.15968697583e+09   -6.60809866338e-01    1.77076246856e+10 
  -9.61829549194e+01    4.41176721403e+09   -3.94044574889e-01    1.75226100002e+10 
  -9.61171437973e+01    4.67390213676e+09   -1.22971912875e-01    1.73461652683e+10 
  -9.60513326752e+01    4.94153694217e+09    1.52007258078e-01    1.71762463882e+10 
  -9.59855215531e+01    5.21001539794e+09    4.30483564243e-01    1.70101536302e+10 
  -9.59197104311e+01    5.47510524708e+09    7.12067999509e-01    1.68461583137e+10 
  -9.58538993090e+01    5.73244493028e+09    9.96411955137e-01    1.66819717551e+10 
  -9.57880881869e+01    5.97803924589e+09    1.28316655016e+00    1.65157177480e+10 
  -9.57222770648e+01    6.20791052671e+09    1.57203146200e+00    1.63453930941e+10 
  -9.56564659427e+01    6.41865680128e+09    1.86274090705e+00    1.61696978846e+10 
  -9.55906548207e+01    6.60703184461e+09    2.15503444247e+00    1.59870708224e+10 
  -9.55248436986e+01    6.76993104557e+09    2.44868470353e+00    1.57961036917e+10 
  -9.54590325765e+01    6.90503808820e+09    2.74350756291e+00    1.55960665561e+10 
  -9.53932214544e+01    7.00999478385e+09    3.03929031447e+00    1.53859279885e+10 
  -9.53274103323e+01    7.08333219752e+09   -2.94729387023e+00    1.51656011279e+10 
  -9.52615992103e+01    7.12341036856e+09   -2.65004589337e+00    1.49343342305e+10 
  -9.51957880882e+01    7.12940361060e+09   -2.35229501989e+00    1.46921365671e+10 
  -9.51299769661e+01    7.10096319536e+09   -2.05417443152e+00    1.44394403898e+10 
  -9.50641658440e+01    7.03805097205e+09   -1.75581629524e+00    1.41766632306e+10 
  -9.49983547219e+01    6.94080858180e+09   -1.45733535195e+00    1.39041969137e+10 
  -9.49325435999e+01    6.81040595985e+09   -1.15886000168e+00    1.36234287002e+10 
  -9.48667324778e+01    6.64782174160e+09   -8.60521755940e-01    1.33351433759e+10 
  -9.48009213557e+01    6.45474716473e+09   -5.62444017009e-01    1.30407310097e+10 
  -9.47351102336e+01    6.23295142694e+09   -2.64748731386e-01    1.27415427227e+10 
  -9.46692991115e+01    5.98507734722e+09    3.24148525637e-02    1.24396867538e+10 
  -9.46034879895e+01    5.71351571084e+09    3.28904099305e-01    1.21367073464e+10 
  -9.45376768674e+01    5.42126899902e+09    6.24544757998e-01    1.18346531208e+10 
  -9.44718657453e+01    5.11144209034e+09    9.19155445527e-01    1.15356091259e+10 
  -9.44060546232e+01    4.78737139871e+09    1.21251186290e+00    1.12416114645e+10 
  -9.43402435012e+01    4.45258910542e+09    1.50438496051e+00    1.09550088788e+10 
  -9.42744323791e+01    4.11082740463e+09    1.79447180692e+00    1.06780419856e+10 
  -9.42086212570e+01    3.76563514543e+09    2.08241408036e+00    1.04128463534e+10 
  -9.41428101349e+01    3.42099205860e+09    2.36779838181e+00    1.01616588536e+10 
  -9.40769990128e+01    3.08045349026e+09    2.65009670717e+00    9.92659803797e+09 
  -9.40111878908e+01    2.74803563543e+09    2.92866360087e+00    9.70994841818e+09 
  -9.39453767687e+01    2.42715115436e+09   -3.08049387955e+00    9.51351054031e+09 
  -9.38795656466e+01    2.12155988523e+09   -2.81205336989e+00    9.33934120929e+09 
  -9.38137545245e+01    1.83449075800e+09   -2.55049352590e+00    9.18901885950e+09 
  -9.37479434024e+01    1.56923765589e+09   -2.29752086722e+00    9.06413362517e+09 
  -9.36821322804e+01    1.32869494203e+09   -2.05526510746e+00    8.96616502405e+09 
  -9.36163211583e+01    1.11562575553e+09   -1.82636853943e+00    8.89633956996e+09 
  -9.35505100362e+01    9.32443266604e+08   -1.61403270522e+00    8.85548875560e+09 
  -9.34846989141e+01    7.81244373398e+08   -1.42159326937e+00    8.84440594502e+09 
  -9.34188877920e+01    6.63840121739e+08   -1.25185942761e+00    8.86369130825e+09 
  -9.33530766700e+01    5.81604629565e+08   -1.10535227827e+00    8.91346302218e+09 
  -9.32872655479e+01    5.35685322902e+08   -9.78263929082e-01    8.99403693199e+09 
  -9.32214544258e+01    5.26699331769e+08   -8.61232228794e-01    9.10467753390e+09 
  -9.31556433037e+01    5.54982450661e+08   -7.41323294079e-01    9.24550711258e+09 
  -9.30898321816e+01    6.20466483156e+08   -6.06792747403e-01    9.41546594013e+09 
  -9.30240210596e+01    7.22707832965e+08   -4.50812517118e-01    9.61347644426e+09 
  -9.29582099375e+01    8.60897279400e+08   -2.71867851531e-01    9.83856132199e+09 
  -9.28923988154e+01    1.03383429158e+09   -7.17886490649e-02    1.00892791527e+10 
  -9.28265876933e+01    1.24000896738e+09    1.46224780658e-01    1.03637337492e+10 
  -9.27607765712e+01    1.47753804694e+09    3.78845538414e-01    1.06603060617e+10 
  -9.26949654492e+01    1.74422075590e+09    6.23098543333e-01    1.09768538806e+10 
  -9.26291543271e+01    2.03773289978e+09    8.76601333660e-01    1.13112884969e+10 
  -9.25633432050e+01    2.35521938694e+09    1.13744084048e+00    1.16611900836e+10 
  -9.24975320829e+01    2.69383520831e+09    1.40411319503e+00    1.20241971223e+10 
  -9.24317209608e+01    3.05038217123e+09    1.67544551045e+00    1.23975861579e+10 
  -9.23659098388e+01    3.42151808139e+09    1.95052281736e+00    1.27787742604e+10 
  -9.23000987167e+01    3.80406542198e+09    2.22863529236e+00    1.31652131655e+10 
  -9.22342875946e+01    4.19417366282e+09    2.50917449623e+00    1.35540019048e+10 
  -9.21684764725e+01    4.58852194105e+09    2.79169274583e+00    1.39427048959e+10 
  -9.21026653504e+01    4.98340734727e+09    3.07581093220e+00    1.43283617947e+10 
  -9.20368542284e+01    5.37529526076e+09   -2.92197338002e+00    1.47084596586e+10 
  -9.19710431063e+01    5.76066468738e+09   -2.63555157369e+00    1.50803628387e+10 
  -9.19052319842e+01    6.13610415434e+09   -2.34832377943e+00    1.54416485346e+10 
  -9.18394208621e+01    6.49836909682e+09   -2.06046568504e+00    1.57900034232e+10 
  -9.17736097400e+01    6.84420814228e+09   -1.77215584103e+00    1.61229767874e+10 
  -9.17077986180e+01    7.17082818020e+09   -1.48352051383e+00    1.64388113431e+10 
  -9.16419874959e+01    7.47532640989e+09   -1.19469721516e+00    1.67352865080e+10 
  -9.15761763738e+01    7.75551244547e+09   -9.05779915257e-01    1.70111522714e+10 
  -9.15103652517e+01    8.00887620739e+09   -6.16874930982e-01    1.72643839229e+10 
  -9.14445541296e+01    8.23369107656e+09   -3.28089167593e-01    1.74940441198e+10 
  -9.13787430076e+01    8.42844234264e+09   -3.94831297385e-02    1.76991826574e+10 
  -9.13129318855e+01    8.59157702084e+09    2.48843056803e-01    1.78784825170e+10 
  -9.12471207634e+01    8.72232725389e+09    5.36811828675e-01    1.80318531653e+10 
  -9.11813096413e+01    8.81994417789e+09    8.24347334637e-01    1.81584972832e+10 
  -9.11154985192e+01    8.88418280687e+09    1.11138164205e+00    1.82584410242e+10 
  -9.10496873972e+01    8.91524237248e+09    1.39782926303e+00    1.83320630966e+10 
  -9.09838762751e+01    8.91326543703e+09    1.68363293574e+00    1.83791355603e+10 
  -9.09180651530e+01    8.87922279197e+09    1.96868738756e+00    1.84008107897e+10 
  -9.08522540309e+01    8.81403381046e+09    2.25293133931e+00    1.83975889507e+10 
  -9.07864429089e+01    8.71900244864e+09    2.53628061453e+00    1.83703433870e+10 
  -9.07206317868e+01    8.59575812198e+09    2.81864570017e+00    1.83202911095e+10 
  -9.06548206647e+01    8.44615891977e+09    3.09993826233e+00    1.82486660212e+10 
  -9.05890095426e+01    8.27247075459e+09   -2.90311966394e+00    1.81573215918e+10 
  -9.05231984205e+01    8.07679600007e+09   -2.62426112714e+00    1.80472733106e+10 
  -9.04573872985e+01    7.86178709660e+09   -2.34677574810e+00    1.79206582737e+10 
  -9.03915761764e+01    7.63002957721e+09   -2.07077730463e+00    1.77790644117e+10 
  -9.03257650543e+01    7.38458942478e+09   -1.79638041317e+00    1.76248780920e+10 
  -9.02599539322e+01    7.12797338169e+09   -1.52370655356e+00    1.74593917038e+10 
  -9.01941428101e+01    6.86327572277e+09   -1.25287674619e+00    1.72846885527e+10 
  -9.01283316881e+01    6.59347701626e+09   -9.84037081790e-01    1.71028621673e+10 
  -9.00625205660e+01    6.32165137925e+09   -7.17319003712e-01    1.69161435562e+10 
  -8.99967094439e+01    6.05062350720e+09   -4.52850517140e-01    1.67260666543e+10 
  -8.99308983218e+01    5.78323139350e+09   -1.90761378903e-01    1.65346272018e+10 
  -8.98650871997e+01    5.52232154807e+09    6.88205814279e-02    1.63435471845e+10 
  -8.97992760777e+01    5.27050559702e+09    3.25777773847e-01    1.61546849901e+10 
  -8.97334649556e+01    5.03021743522e+09    5.80034584680e-01    1.59695221044e+10 
  -8.96676538335e+01    4.80369152034e+09    8.31517433667e-01    1.57892322751e+10 
  -8.96018427114e+01    4.59323990663e+09    1.08020833721e+00    1.56157787338e+10 
  -8.95360315893e+01    4.40046696088e+09    1.32613666940e+00    1.54495583606e+10 
  -8.94702204673e+01    4.22712611317e+09    1.56936589615e+00    1.52920726311e+10 
  -8.94044093452e+01    4.07453681390e+09    1.81007131778e+00    1.51438925140e+10 
  -8.93385982231e+01    3.94382815935e+09    2.04845372499e+00    1.50059109503e+10 
  -8.92727871010e+01    3.83573348909e+09    2.28482519971e+00    1.48780788807e+10 
  -8.92069759789e+01    3.75075208812e+09    2.51952118501e+00    1.47611173187e+10 
  -8.91411648569e+01    3.68911715653e+09    2.75299929581e+00    1.46547991458e+10 
  -8.90753537348e+01    3.65078192803e+09    2.98573309519e+00    1.45589891123e+10 
  -8.90095426127e+01    3.63545772549e+09   -3.06499338572e+00    1.44738029904e+10 
  -8.89437314906e+01    3.64234919613e+09   -2.83228340165e+00    1.43982482834e+10 
  -8.88779203685e+01    3.67067100644e+09   -2.59887110308e+00    1.43317700960e+10 
  -8.88121092465e+01    3.71928705999e+09   -2.36431428009e+00    1.42738664254e+10 
  -8.87462981244e+01    3.78680155042e+09   -2.12824741397e+00    1.42233160475e+10 
  -8.86804870023e+01    3.87146365510e+09   -1.89036750625e+00    1.41790117090e+10 
  -8.86146758802e+01    3.97167603801e+09   -1.65044965427e+00    1.41398865286e+10 
  -8.85488647581e+01    4.08533579128e+09   -1.40833874597e+00    1.41047370540e+10 
  -8.84830536361e+01    4.21028048570e+09   -1.16396915859e+00    1.40718974350e+10 
  -8.84172425140e+01    4.34433822686e+09   -9.17280854242e-01    1.40401796097e+10 
  -8.83514313919e+01    4.48505217150e+09   -6.68317702463e-01    1.40078729524e+10 
  -8.82856202698e+01    4.63009840991e+09   -4.17138700340e-01    1.39735986030e+10 
  -8.82198091477e+01    4.77693492816e+09   -1.63826275915e-01    1.39357681426e+10 
  -8.81539980257e+01    4.92309998437e+09    9.15020107867e-02    1.38929654438e+10 
  -8.80881869036e+01    5.06622658818e+09    3.48715582414e-01    1.38437122397e+10 
  -8.80223757815e+01    5.20381524324e+09    6.07692702661e-01    1.37864825204e+10 
  -8.79565646594e+01    5.33356355871e+09    8.68289819030e-01    1.37200529857e+10 
  -8.78907535373e+01    5.45326626920e+09    1.13036363453e+00    1.36430855350e+10 
  -8.78249424153e+01    5.56067791276e+09    1.39378394246e+00    1.35541527050e+10 
  -8.77591312932e+01    5.65411102227e+09    1.65841748601e+00    1.34527154852e+10 
  -8.76933201711e+01    5.73173892681e+09    1.92413211285e+00    1.33377394356e+10 
  -8.76275090490e+01    5.79180143068e+09    2.19081205166e+00    1.32081224264e+10 
  -8.75616979269e+01    5.83315867303e+09    2.45832300581e+00    1.30636527873e+10 
  -8.74958868049e+01    5.85449771121e+09    2.72657109215e+00    1.29034903563e+10 
  -8.74300756828e+01    5.85505242659e+09    2.99543850425e+00    1.27276914581e+10 
  -8.73642645607e+01    5.83414568811e+09   -3.01837355828e+00    1.25360173153e+10 
  -8.72984534386e+01    5.79141286037e+09   -2.74857836638e+00    1.23286607581e+10 
  -8.72326423166e+01    5.72665263383e+09   -2.47847329267e+00    1.21056384722e+10 
  -8.71668311945e+01    5.64010695851e+09   -2.20815576015e+00    1.18676170289e+10 
  -8.71010200724e+01    5.53219513906e+09   -1.93771623422e+00    1.16152035621e+10 
  -8.70352089503e+01    5.40328895287e+09   -1.66725448353e+00    1.13488033926e+10 
  -8.69693978282e+01    5.25460173037e+09   -1.39686761185e+00    1.10698888127e+10 
  -8.69035867062e+01    5.08713154509e+09   -1.12666442620e+00    1.07792319181e+10 
  -8.68377755841e+01    4.90216693583e+09   -8.56744340632e-01    1.04781248096e+10 
  -8.67719644620e+01    4.70127373589e+09   -5.87225495435e-01    1.01678698100e+10 
  -8.67061533399e+01    4.48621710957e+09   -3.18209522178e-01    9.85009718318e+09 
  -8.66403422178e+01    4.25874847328e+09   -4.98656305431e-02    9.52606764006e+09 
  -8.65745310958e+01    4.02106141667e+09    2.17690431528e-01    9.19777761386e+09 
  -8.65087199737e+01    3.77514562951e+09    4.84281356381e-01    8.86662099205e+09 
  -8.64429088516e+01    3.52332751116e+09    7.49722247832e-01    8.53466689673e+09 
  -8.63770977295e+01    3.26787448149e+09    1.01380238549e+00    8.20355970009e+09 
  -8.63112866074e+01    3.01104295728e+09    1.27625628437e+00    7.87503213863e+09 
  -8.62454754854e+01    2.75527671323e+09    1.53680504271e+00    7.55109657540e+09 
  -8.61796643633e+01    2.50280591614e+09    1.79506699948e+00    7.23332599056e+09 
  -8.61138532412e+01    2.25592439737e+09    2.05062841064e+00    6.92347094714e+09 
  -8.60480421191e+01    2.01685611516e+09    2.30296936930e+00    6.62327413590e+09 
  -8.59822309970e+01    1.78763941073e+09    2.55143984428e+00    6.33417518480e+09 
  -8.59164198750e+01    1.57032676453e+09    2.79522748197e+00    6.05781417124e+09 
  -8.58506087529e+01    1.36668707509e+09    3.03336249531e+00    5.79538801437e+09 
  -8.57847976308e+01    1.17848098091e+09   -3.01863643100e+00    5.54837078864e+09 
  -8.57189865087e+01    1.00713540668e+09   -2.79588120040e+00    5.31767934897e+09 
  -8.56531753866e+01    8.53925672472e+08   -2.58349639020e+00    5.10441593104e+09 
  -8.55873642646e+01    7.19969932151e+08   -2.38371347054e+00    4.90926273574e+09 
  -8.55215531425e+01    6.06059955067e+08   -2.19905355115e+00    4.73281922517e+09 
  -8.54557420204e+01    5.12842649615e+08   -2.03195601424e+00    4.57566778580e+09 
  -8.53899308983e+01    4.40696632012e+08   -1.88397176705e+00    4.43823238409e+09 
  -8.53241197762e+01    3.89731979010e+08   -1.75480950718e+00    4.32039219513e+09 
  -8.52583086542e+01    3.59786315776e+08   -1.64073549930e+00    4.22222051618e+09 
  -8.51924975321e+01    3.50550436589e+08   -1.53427867530e+00    4.14343815052e+09 
  -8.51266864100e+01    3.61412731238e+08   -1.42570702677e+00    4.08381024234e+09 
  -8.50608752879e+01    3.91509556162e+08   -1.30606634313e+00    4.04258643160e+09 
  -8.49950641658e+01    4.39841319531e+08   -1.16957200657e+00    4.01929192663e+09 
  -8.49292530438e+01    5.05141972172e+08   -1.01425708859e+00    4.01295424276e+09 
  -8.48634419217e+01    5.85946519311e+08   -8.40826969428e-01    4.02268444789e+09 
  -8.47976307996e+01    6.80688085078e+08   -6.51403858008e-01    4.04746334020e+09 
  -8.47318196775e+01    7.87615846115e+08   -4.48504439923e-01    4.08611548362e+09 
  -8.46660085554e+01    9.04815689321e+08   -2.34565701236e-01    4.13735980582e+09 
